time [s],T [°C],U [mV]
10,6.4,159.91
20,7.7,144.41
30,8.8,131.73
40,9.9,119.08
50,10.9,108.52
60,11.8,98.23
70,12.5,90.99
80,13.3,82.49
90,13.9,75.16
100,14.4,69.53
110,15.0,63.58
120,15.5,58.18
130,15.9,53.41
140,16.3,49.19
150,16.6,45.18
160,16.9,41.51
170,17.3,38.16
180,17.5,35.18
190,17.8,32.22
200,18.0,29.57
210,18.2,27.49
220,18.4,25.01
230,18.6,22.95
240,18.8,21.07
250,18.9,19.33
260,19.1,17.70
270,19.2,16.25
280,19.3,14.87
290,19.5,13.57
300,19.6,12.33